Time(s),Position(m),Velocity(m/s)
0,0,0
0.1,-0.00572134,-0.0374852
0.2,-0.0151834,-0.0748158
0.3,-0.0283709,-0.111992
0.4,-0.0452683,-0.149015
0.5,-0.0658604,-0.185886
0.6,-0.0901318,-0.222604
0.7,-0.118067,-0.25917
0.8,-0.149652,-0.295586
0.9,-0.184871,-0.331851
1,-0.223709,-0.367967
1.1,-0.266151,-0.403933
1.2,-0.312182,-0.439752
1.3,-0.361788,-0.475422
1.4,-0.414953,-0.510945
1.5,-0.471663,-0.546322
1.6,-0.531904,-0.581552
1.7,-0.59566,-0.616637
1.8,-0.662917,-0.651578
1.9,-0.733662,-0.686374
2,-0.807879,-0.721026
2.1,-0.885553,-0.755536
2.2,-0.966672,-0.789903
2.3,-1.05122,-0.824128
2.4,-1.13918,-0.858212
2.5,-1.23055,-0.892156
2.6,-1.3253,-0.925959
2.7,-1.42343,-0.959623
2.8,-1.52491,-0.993148
2.9,-1.62974,-1.02653
3,-1.73791,-1.05978
3.1,-1.84939,-1.09289
3.2,-1.96417,-1.12587
3.3,-2.08225,-1.15871
3.4,-2.2036,-1.19141
3.5,-2.32822,-1.22398
3.6,-2.45608,-1.25641
3.7,-2.58718,-1.28871
3.8,-2.72151,-1.32088
3.9,-2.85905,-1.35291
4,-2.99978,-1.38482
4.1,-3.1437,-1.41659
4.2,-3.29078,-1.44822
4.3,-3.44103,-1.47973
4.4,-3.59442,-1.51111
4.5,-3.75094,-1.54236
4.6,-3.91057,-1.57348
4.7,-4.07332,-1.60447
4.8,-4.23916,-1.63533
4.9,-4.40807,-1.66607
5,-4.58006,-1.69668
5.1,-4.75509,-1.72716
5.2,-4.93317,-1.75752
5.3,-5.11428,-1.78775
5.4,-5.29841,-1.81786
5.5,-5.48554,-1.84784
5.6,-5.67567,-1.8777
5.7,-5.86877,-1.90744
5.8,-6.06484,-1.93705
5.9,-6.26387,-1.96654
6,-6.46583,-1.99591
6.1,-6.67073,-2.02516
6.2,-6.87855,-2.05429
6.3,-7.08928,-2.08329
6.4,-7.3029,-2.11218
6.5,-7.5194,-2.14095
6.6,-7.73877,-2.1696
6.7,-7.96101,-2.19813
6.8,-8.18609,-2.22654
6.9,-8.414,-2.25484
7,-8.64474,-2.28302
7.1,-8.87829,-2.31108
7.2,-9.11464,-2.33903
7.3,-9.35378,-2.36686
7.4,-9.5957,-2.39458
7.5,-9.84039,-2.42218
7.6,-10.0878,-2.44967
7.7,-10.338,-2.47704
7.8,-10.5909,-2.50431
7.9,-10.8466,-2.53146
8,-11.1049,-2.55849
8.1,-11.3659,-2.58542
8.2,-11.6297,-2.61224
8.3,-11.8961,-2.63894
8.4,-12.1651,-2.66553
8.5,-12.4369,-2.69202
8.6,-12.7112,-2.71839
8.7,-12.9882,-2.74466
8.8,-13.2679,-2.77082
8.9,-13.5501,-2.79687
9,-13.8349,-2.82281
9.1,-14.1223,-2.84865
9.2,-14.4123,-2.87438
9.3,-14.7049,-2.9
9.4,-15,-2.92551
9.5,-15.2977,-2.95093
9.6,-15.5979,-2.97623
9.7,-15.9006,-3.00143
9.8,-16.2059,-3.02653
9.9,-16.5136,-3.05153
10,-16.8238,-3.07642
10.1,-17.1366,-3.10121
10.2,-17.4518,-3.12589
10.3,-17.7694,-3.15048
10.4,-18.0896,-3.17496
10.5,-18.4121,-3.19934
10.6,-18.7371,-3.22363
10.7,-19.0645,-3.24781
10.8,-19.3944,-3.27189
10.9,-19.7266,-3.29587
11,-20.0612,-3.31975
11.1,-20.3982,-3.34354
11.2,-20.7376,-3.36722
11.3,-21.0794,-3.39081
11.4,-21.4235,-3.4143
11.5,-21.7699,-3.4377
11.6,-22.1187,-3.461
11.7,-22.4698,-3.4842
11.8,-22.8232,-3.5073
11.9,-23.1789,-3.53031
12,-23.537,-3.55323
12.1,-23.8973,-3.57605
12.2,-24.2599,-3.59878
12.3,-24.6247,-3.62141
12.4,-24.9918,-3.64395
12.5,-25.3612,-3.6664
12.6,-25.7328,-3.68875
12.7,-26.1066,-3.71101
12.8,-26.4827,-3.73318
12.9,-26.861,-3.75526
13,-27.2414,-3.77725
13.1,-27.6241,-3.79914
13.2,-28.0089,-3.82095
13.3,-28.396,-3.84266
13.4,-28.7852,-3.86429
13.5,-29.1765,-3.88583
13.6,-29.57,-3.90728
13.7,-29.9657,-3.92864
13.8,-30.3634,-3.94991
13.9,-30.7633,-3.97109
14,-31.1653,-3.99219
14.1,-31.5694,-4.0132
14.2,-31.9757,-4.03412
14.3,-32.384,-4.05496
14.4,-32.7943,-4.07571
14.5,-33.2068,-4.09637
14.6,-33.6213,-4.11695
14.7,-34.0379,-4.13744
14.8,-34.4565,-4.15785
14.9,-34.8771,-4.17818
15,-35.2998,-4.19842
15.1,-35.7245,-4.21858
15.2,-36.1512,-4.23866
15.3,-36.5799,-4.25865
15.4,-37.0106,-4.27856
15.5,-37.4433,-4.29838
15.6,-37.878,-4.31813
15.7,-38.3146,-4.33779
15.8,-38.7532,-4.35738
15.9,-39.1938,-4.37688
16,-39.6363,-4.3963
16.1,-40.0807,-4.41564
16.2,-40.5271,-4.4349
16.3,-40.9754,-4.45409
16.4,-41.4256,-4.47319
16.5,-41.8777,-4.49221
16.6,-42.3317,-4.51116
16.7,-42.7876,-4.53003
16.8,-43.2454,-4.54882
16.9,-43.7051,-4.56753
17,-44.1666,-4.58616
17.1,-44.63,-4.60472
17.2,-45.0952,-4.6232
17.3,-45.5623,-4.64161
17.4,-46.0312,-4.65994
17.5,-46.502,-4.67819
17.6,-46.9746,-4.69637
17.7,-47.449,-4.71447
17.8,-47.9252,-4.7325
17.9,-48.4031,-4.75045
18,-48.8829,-4.76833
18.1,-49.3645,-4.78614
18.2,-49.8478,-4.80387
18.3,-50.333,-4.82153
18.4,-50.8198,-4.83912
18.5,-51.3085,-4.85663
18.6,-51.7989,-4.87407
18.7,-52.291,-4.89144
18.8,-52.7848,-4.90874
18.9,-53.2804,-4.92597
19,-53.7777,-4.94312
19.1,-54.2767,-4.96021
19.2,-54.7774,-4.97722
19.3,-55.2799,-4.99417
19.4,-55.784,-5.01104
19.5,-56.2897,-5.02785
19.6,-56.7972,-5.04458
19.7,-57.3063,-5.06125
19.8,-57.8171,-5.07784
19.9,-58.3296,-5.09437
20,-58.8437,-5.11083
20.1,-59.3595,-5.12723
20.2,-59.8768,-5.14355
20.3,-60.3959,-5.15981
20.4,-60.9165,-5.176
20.5,-61.4387,-5.19212
20.6,-61.9626,-5.20818
20.7,-62.4881,-5.22417
20.8,-63.0151,-5.2401
20.9,-63.5438,-5.25596
21,-64.074,-5.27175
21.1,-64.6058,-5.28748
21.2,-65.1392,-5.30314
21.3,-65.6741,-5.31874
21.4,-66.2106,-5.33427
21.5,-66.7487,-5.34975
21.6,-67.2882,-5.36515
21.7,-67.8294,-5.38049
21.8,-68.372,-5.39577
21.9,-68.9162,-5.41099
22,-69.4619,-5.42614
22.1,-70.0091,-5.44124
22.2,-70.5579,-5.45627
22.3,-71.1081,-5.47123
22.4,-71.6598,-5.48614
22.5,-72.213,-5.50098
22.6,-72.7677,-5.51576
22.7,-73.3238,-5.53049
22.8,-73.8815,-5.54515
22.9,-74.4405,-5.55975
23,-75.0011,-5.57429
23.1,-75.5631,-5.58877
23.2,-76.1265,-5.60319
23.3,-76.6914,-5.61755
23.4,-77.2577,-5.63185
23.5,-77.8255,-5.64609
23.6,-78.3946,-5.66027
23.7,-78.9652,-5.6744
23.8,-79.5372,-5.68847
23.9,-80.1106,-5.70247
24,-80.6854,-5.71643
24.1,-81.2616,-5.73032
24.2,-81.8391,-5.74415
24.3,-82.4181,-5.75793
24.4,-82.9984,-5.77166
24.5,-83.5801,-5.78532
24.6,-84.1631,-5.79893
24.7,-84.7476,-5.81248
24.8,-85.3333,-5.82598
24.9,-85.9204,-5.83942
25,-86.5089,-5.85281
25.1,-87.0987,-5.86614
25.2,-87.6898,-5.87941
25.3,-88.2823,-5.89263
25.4,-88.876,-5.9058
25.5,-89.4711,-5.91891
25.6,-90.0675,-5.93197
25.7,-90.6652,-5.94497
25.8,-91.2642,-5.95792
25.9,-91.8645,-5.97082
26,-92.466,-5.98366
26.1,-93.0689,-5.99645
26.2,-93.673,-6.00919
26.3,-94.2784,-6.02188
26.4,-94.8851,-6.03451
26.5,-95.493,-6.04709
26.6,-96.1022,-6.05962
26.7,-96.7126,-6.07209
26.8,-97.3243,-6.08452
26.9,-97.9372,-6.09689
27,-98.5513,-6.10922
27.1,-99.1667,-6.12149
27.2,-99.7833,-6.13371
27.3,-100.401,-6.14588
27.4,-101.02,-6.158
27.5,-101.64,-6.17007
27.6,-102.262,-6.1821
27.7,-102.885,-6.19407
27.8,-103.508,-6.20599
27.9,-104.133,-6.21786
28,-104.76,-6.22969
28.1,-105.387,-6.24146
28.2,-106.016,-6.25319
28.3,-106.645,-6.26487
28.4,-107.276,-6.2765
28.5,-107.908,-6.28808
28.6,-108.542,-6.29961
28.7,-109.176,-6.3111
28.8,-109.811,-6.32254
28.9,-110.448,-6.33393
29,-111.086,-6.34527
29.1,-111.725,-6.35657
29.2,-112.365,-6.36782
29.3,-113.006,-6.37903
29.4,-113.648,-6.39019
29.5,-114.292,-6.4013
29.6,-114.936,-6.41237
29.7,-115.582,-6.42339
29.8,-116.229,-6.43436
29.9,-116.877,-6.44529
30,-117.526,-6.45618
30.1,-118.176,-6.46702
30.2,-118.827,-6.47781
30.3,-119.479,-6.48857
30.4,-120.132,-6.49927
30.5,-120.786,-6.50993
30.6,-121.442,-6.52055
30.7,-122.098,-6.53113
30.8,-122.756,-6.54166
30.9,-123.414,-6.55215
31,-124.074,-6.56259
31.1,-124.734,-6.57299
31.2,-125.396,-6.58335
31.3,-126.059,-6.59367
31.4,-126.722,-6.60394
31.5,-127.387,-6.61417
31.6,-128.053,-6.62436
31.7,-128.72,-6.6345
31.8,-129.388,-6.64461
31.9,-130.056,-6.65467
32,-130.726,-6.66469
32.1,-131.397,-6.67467
32.2,-132.069,-6.68461
32.3,-132.742,-6.69451
32.4,-133.415,-6.70436
32.5,-134.09,-6.71418
32.6,-134.766,-6.72396
32.7,-135.443,-6.73369
32.8,-136.12,-6.74339
32.9,-136.799,-6.75304
33,-137.479,-6.76266
33.1,-138.159,-6.77223
33.2,-138.841,-6.78177
33.3,-139.523,-6.79126
33.4,-140.207,-6.80072
33.5,-140.891,-6.81014
33.6,-141.576,-6.81952
33.7,-142.263,-6.82886
33.8,-142.95,-6.83816
33.9,-143.638,-6.84743
34,-144.327,-6.85665
34.1,-145.017,-6.86584
34.2,-145.708,-6.87499
34.3,-146.4,-6.8841
34.4,-147.092,-6.89318
34.5,-147.786,-6.90221
34.6,-148.48,-6.91121
34.7,-149.176,-6.92017
34.8,-149.872,-6.9291
34.9,-150.569,-6.93799
35,-151.267,-6.94684
35.1,-151.966,-6.95566
35.2,-152.666,-6.96443
35.3,-153.367,-6.97318
35.4,-154.069,-6.98188
35.5,-154.771,-6.99055
35.6,-155.474,-6.99919
35.7,-156.179,-7.00779
35.8,-156.884,-7.01635
35.9,-157.59,-7.02488
36,-158.296,-7.03337
36.1,-159.004,-7.04183
36.2,-159.712,-7.05026
36.3,-160.422,-7.05864
36.4,-161.132,-7.067
36.5,-161.843,-7.07532
36.6,-162.555,-7.0836
36.7,-163.267,-7.09185
36.8,-163.981,-7.10007
36.9,-164.695,-7.10825
37,-165.41,-7.1164
37.1,-166.126,-7.12452
37.2,-166.843,-7.1326
37.3,-167.56,-7.14065
37.4,-168.278,-7.14866
37.5,-168.997,-7.15665
37.6,-169.717,-7.1646
37.7,-170.438,-7.17251
37.8,-171.16,-7.1804
37.9,-171.882,-7.18825
38,-172.605,-7.19607
38.1,-173.329,-7.20385
38.2,-174.053,-7.21161
38.3,-174.779,-7.21933
38.4,-175.505,-7.22702
38.5,-176.232,-7.23468
38.6,-176.96,-7.24231
38.7,-177.688,-7.2499
38.8,-178.417,-7.25747
38.9,-179.147,-7.265
39,-179.878,-7.2725
39.1,-180.609,-7.27998
39.2,-181.342,-7.28742
39.3,-182.075,-7.29483
39.4,-182.808,-7.30221
39.5,-183.543,-7.30955
39.6,-184.278,-7.31687
39.7,-185.014,-7.32416
39.8,-185.75,-7.33142
39.9,-186.488,-7.33865
40,-187.226,-7.34585
40.1,-187.965,-7.35301
40.2,-188.704,-7.36015
40.3,-189.444,-7.36726
40.4,-190.185,-7.37434
40.5,-190.927,-7.38139
40.6,-191.669,-7.38842
40.7,-192.412,-7.39541
40.8,-193.156,-7.40237
40.9,-193.9,-7.40931
41,-194.645,-7.41621
41.1,-195.391,-7.42309
41.2,-196.138,-7.42994
41.3,-196.885,-7.43676
41.4,-197.633,-7.44356
41.5,-198.381,-7.45032
41.6,-199.131,-7.45706
41.7,-199.88,-7.46377
41.8,-200.631,-7.47045
41.9,-201.382,-7.47711
42,-202.134,-7.48373
42.1,-202.887,-7.49033
42.2,-203.64,-7.49691
42.3,-204.394,-7.50345
42.4,-205.148,-7.50997
42.5,-205.903,-7.51646
42.6,-206.659,-7.52292
42.7,-207.416,-7.52936
42.8,-208.173,-7.53577
42.9,-208.931,-7.54216
43,-209.689,-7.54852
43.1,-210.448,-7.55485
43.2,-211.208,-7.56116
43.3,-211.968,-7.56744
43.4,-212.729,-7.57369
43.5,-213.49,-7.57992
43.6,-214.252,-7.58612
43.7,-215.015,-7.5923
43.8,-215.779,-7.59845
43.9,-216.543,-7.60457
44,-217.307,-7.61068
44.1,-218.072,-7.61675
44.2,-218.838,-7.6228
44.3,-219.605,-7.62883
44.4,-220.372,-7.63483
44.5,-221.139,-7.6408
44.6,-221.907,-7.64676
44.7,-222.676,-7.65268
44.8,-223.446,-7.65858
44.9,-224.216,-7.66446
45,-224.986,-7.67032
45.1,-225.757,-7.67615
45.2,-226.529,-7.68195
45.3,-227.302,-7.68773
45.4,-228.074,-7.69349
45.5,-228.848,-7.69922
45.6,-229.622,-7.70493
45.7,-230.397,-7.71062
45.8,-231.172,-7.71628
45.9,-231.948,-7.72192
46,-232.724,-7.72754
46.1,-233.501,-7.73313
46.2,-234.278,-7.7387
46.3,-235.056,-7.74425
46.4,-235.835,-7.74978
46.5,-236.614,-7.75528
46.6,-237.393,-7.76076
46.7,-238.174,-7.76621
46.8,-238.954,-7.77165
46.9,-239.736,-7.77706
47,-240.517,-7.78245
47.1,-241.3,-7.78781
47.2,-242.083,-7.79316
47.3,-242.866,-7.79848
47.4,-243.65,-7.80378
47.5,-244.435,-7.80906
47.6,-245.22,-7.81432
47.7,-246.005,-7.81955
47.8,-246.791,-7.82477
47.9,-247.578,-7.82996
48,-248.365,-7.83513
48.1,-249.152,-7.84028
48.2,-249.941,-7.84541
48.3,-250.729,-7.85051
48.4,-251.518,-7.8556
48.5,-252.308,-7.86066
48.6,-253.098,-7.86571
48.7,-253.889,-7.87073
48.8,-254.68,-7.87573
48.9,-255.472,-7.88071
49,-256.264,-7.88568
49.1,-257.057,-7.89062
49.2,-257.85,-7.89554
49.3,-258.643,-7.90044
49.4,-259.437,-7.90532
49.5,-260.232,-7.91018
49.6,-261.027,-7.91502
49.7,-261.823,-7.91984
49.8,-262.619,-7.92464
49.9,-263.415,-7.92942
50,-264.212,-7.93418
50.1,-265.01,-7.93892
50.2,-265.808,-7.94364
50.3,-266.606,-7.94834
50.4,-267.405,-7.95302
50.5,-268.205,-7.95768
50.6,-269.004,-7.96233
50.7,-269.805,-7.96695
50.8,-270.606,-7.97156
50.9,-271.407,-7.97614
51,-272.208,-7.98071
51.1,-273.011,-7.98526
51.2,-273.813,-7.98979
51.3,-274.616,-7.9943
51.4,-275.42,-7.99879
51.5,-276.224,-8.00327
51.6,-277.028,-8.00772
51.7,-277.833,-8.01216
51.8,-278.638,-8.01658
51.9,-279.444,-8.02098
52,-280.25,-8.02536
52.1,-281.057,-8.02972
52.2,-281.864,-8.03407
52.3,-282.671,-8.0384
52.4,-283.479,-8.04271
52.5,-284.287,-8.047
52.6,-285.096,-8.05128
52.7,-285.905,-8.05553
52.8,-286.715,-8.05977
52.9,-287.525,-8.064
53,-288.335,-8.0682
53.1,-289.146,-8.07239
53.2,-289.958,-8.07656
53.3,-290.769,-8.08071
53.4,-291.581,-8.08485
53.5,-292.394,-8.08897
53.6,-293.207,-8.09307
53.7,-294.02,-8.09715
53.8,-294.834,-8.10122
53.9,-295.648,-8.10527
54,-296.463,-8.10931
54.1,-297.278,-8.11332
54.2,-298.093,-8.11733
54.3,-298.909,-8.12131
54.4,-299.725,-8.12528
54.5,-300.542,-8.12923
54.6,-301.359,-8.13317
54.7,-302.176,-8.13709
54.8,-302.994,-8.14099
54.9,-303.812,-8.14488
55,-304.63,-8.14875
55.1,-305.449,-8.1526
55.2,-306.269,-8.15644
55.3,-307.088,-8.16026
55.4,-307.908,-8.16407
55.5,-308.729,-8.16786
55.6,-309.55,-8.17164
55.7,-310.371,-8.1754
55.8,-311.192,-8.17914
55.9,-312.014,-8.18287
56,-312.837,-8.18659
56.1,-313.659,-8.19029
56.2,-314.482,-8.19397
56.3,-315.306,-8.19764
56.4,-316.13,-8.20129
56.5,-316.954,-8.20493
56.6,-317.778,-8.20855
56.7,-318.603,-8.21216
56.8,-319.428,-8.21576
56.9,-320.254,-8.21933
57,-321.08,-8.2229
57.1,-321.906,-8.22645
57.2,-322.733,-8.22998
57.3,-323.56,-8.2335
57.4,-324.387,-8.23701
57.5,-325.215,-8.2405
57.6,-326.043,-8.24397
57.7,-326.871,-8.24743
57.8,-327.7,-8.25088
57.9,-328.529,-8.25432
58,-329.359,-8.25774
58.1,-330.189,-8.26114
58.2,-331.019,-8.26453
58.3,-331.849,-8.26791
58.4,-332.68,-8.27127
58.5,-333.511,-8.27462
58.6,-334.343,-8.27796
58.7,-335.174,-8.28128
58.8,-336.006,-8.28459
58.9,-336.839,-8.28788
59,-337.672,-8.29116
59.1,-338.505,-8.29443
59.2,-339.338,-8.29768
59.3,-340.172,-8.30092
59.4,-341.006,-8.30415
59.5,-341.841,-8.30736
59.6,-342.675,-8.31056
59.7,-343.51,-8.31375
59.8,-344.346,-8.31693
59.9,-345.181,-8.32009
